# Wavelength [um]      (Rp/Rstar)^2
1.247264340295633467e+01 2.046272266127219019e+00
1.234915188411518194e+01 2.046272266675394302e+00
1.222688305357938887e+01 2.046272267234536812e+00
1.210582480552414708e+01 2.046272267741998885e+00
1.198596515398430462e+01 2.046272268234882397e+00
1.186729223166762992e+01 2.046272268654476978e+00
1.174979428877982990e+01 2.046272268916747628e+00
1.163345969186121920e+01 2.046272269188535553e+00
1.151827692263487002e+01 2.046272269498566665e+00
1.140423457686620701e+01 2.046272269832797974e+00
1.129132136323386781e+01 2.046272270683731964e+00
1.117952610221174936e+01 2.046272271854945313e+00
1.106883772496212970e+01 2.046272273593353397e+00
1.095924527223973222e+01 2.046272276213815910e+00
1.085073789330666472e+01 2.046272279277959960e+00
1.074330484485808412e+01 2.046272283629152255e+00
1.063693548995849980e+01 2.046272288359532343e+00
1.053161929698861421e+01 2.046272294324957830e+00
1.042734583860258724e+01 2.046272300682368428e+00
1.032410479069563181e+01 2.046272307837463611e+00
1.022188593138181290e+01 2.046272315313753865e+00
1.012067913998199487e+01 2.046272322632354701e+00
1.002047439602177548e+01 2.046272329913030763e+00
9.921261778239381712e+00 2.046272335569768064e+00
9.823031463603349778e+00 2.046272340572893977e+00
9.725773726339950187e+00 2.046272343527026472e+00
9.629478936970249592e+00 2.046272345569961626e+00
9.534137561356683221e+00 2.046272344926172160e+00
9.439740159759089977e+00 2.046272343059699406e+00
9.346277385900089385e+00 2.046272337765426830e+00
9.253739986039693832e+00 2.046272331074395101e+00
9.162118798059102787e+00 2.046272321197526445e+00
9.071404750553567098e+00 2.046272310312350573e+00
8.981588861934222123e+00 2.046272297681066554e+00
8.892662239538834612e+00 2.046272284514683903e+00
8.804616078751321240e+00 2.046272270702319762e+00
8.717441662130022806e+00 2.046272256716082705e+00
8.631130358544575998e+00 2.046272242725809765e+00
8.545673622321363183e+00 2.046272228896002687e+00
8.461062992397387461e+00 2.046272215342440415e+00
8.377290091482562318e+00 2.046272202161294462e+00
8.294346625230261338e+00 2.046272189255755602e+00
8.212224381416099561e+00 2.046272176614056804e+00
8.130915229124850541e+00 2.046272164264015814e+00
8.050411117945397876e+00 2.046272152112320608e+00
7.970704077173661695e+00 2.046272139996675676e+00
7.891786215023426365e+00 2.046272128184830397e+00
7.813649717844977083e+00 2.046272116640154959e+00
7.736286849351461825e+00 2.046272105118635665e+00
7.659689949852931612e+00 2.046272093879607734e+00
7.583851435497953375e+00 2.046272083015407972e+00
7.508763797522725270e+00 2.046272072735926262e+00
7.434419601507648245e+00 2.046272063028459876e+00
7.360811486641236634e+00 2.046272053975426441e+00
7.287932164991324235e+00 2.046272045614739632e+00
7.215774420783487741e+00 2.046272037744902850e+00
7.144331109686621772e+00 2.046272030293974087e+00
7.073595158105566050e+00 2.046272023019223063e+00
7.003559562480758949e+00 2.046272015709772685e+00
6.934217388594810849e+00 2.046272008208469551e+00
6.865561770885950210e+00 2.046272000184798490e+00
6.797585911768267763e+00 2.046271991869991425e+00
6.730283080958680664e+00 2.046271983113728155e+00
6.663646614810574853e+00 2.046271973760720009e+00
6.597669915654034156e+00 2.046271964042477354e+00
6.532346451142608146e+00 2.046271954228993994e+00
6.467669753606543281e+00 2.046271944519879593e+00
6.403633419412418704e+00 2.046271935014065679e+00
6.340231108329128062e+00 2.046271925800052127e+00
6.277456542900125669e+00 2.046271916921261536e+00
6.215303507821907658e+00 2.046271908399381445e+00
6.153765849328621584e+00 2.046271900241388053e+00
6.092837474582792900e+00 2.046271892443924489e+00
6.032512351072073287e+00 2.046271885013363878e+00
5.972784506011953987e+00 2.046271877924521476e+00
5.913648025754409510e+00 2.046271871181286173e+00
5.855097055202384659e+00 2.046271864811504138e+00
5.797125797230084032e+00 2.046271858833428769e+00
5.739728512108993819e+00 2.046271853241493410e+00
5.682899516939598605e+00 2.046271848027175100e+00
5.626633185088711464e+00 2.046271843194311657e+00
5.570923945632387131e+00 2.046271838717478531e+00
5.515766282804344556e+00 2.046271834577169546e+00
5.461154735449845532e+00 2.046271830747083076e+00
5.407083896484995655e+00 2.046271827201580074e+00
5.353548412361381459e+00 2.046271823930700062e+00
5.300542982536021519e+00 2.046271820922536122e+00
5.248062358946555150e+00 2.046271818155132927e+00
5.196101345491639378e+00 2.046271815630547497e+00
5.144654797516475142e+00 2.046271813351360436e+00
5.093717621303440524e+00 2.046271811309269051e+00
5.043284773567762613e+00 2.046271809491727378e+00
4.993351260958180937e+00 2.046271807883019545e+00
4.943912139562555375e+00 2.046271806462479859e+00
4.894962514418371491e+00 2.046271805205741146e+00
4.846497539028090884e+00 2.046271804096061686e+00
4.798512414879296806e+00 2.046271803115008225e+00
4.751002390969600420e+00 2.046271802259566286e+00
4.703962763336238417e+00 2.046271801521255540e+00
4.657388874590335348e+00 2.046271800912861760e+00
4.611276113455778258e+00 2.046271800440933042e+00
4.565619914312651240e+00 2.046271800106615135e+00
4.520415756745198799e+00 2.046271799911024480e+00
4.475659165094256764e+00 2.046271799849445738e+00
4.431345708014116092e+00 2.046271799911774991e+00
4.387470998033777825e+00 2.046271800094378701e+00
4.344030691122553023e+00 2.046271800392474027e+00
4.301020486259953479e+00 2.046271800799774443e+00
4.258436125009854578e+00 2.046271801317397276e+00
4.216273391098866341e+00 2.046271801950966029e+00
4.174528109998877135e+00 2.046271802701189468e+00
4.133196148513740731e+00 2.046271803564993608e+00
4.092273414370040108e+00 2.046271804537574734e+00
4.051755855811920881e+00 2.046271805614187311e+00
4.011639461199922430e+00 2.046271806788618530e+00
3.971920258613783616e+00 2.046271808058195418e+00
3.932594315459191581e+00 2.046271809424297761e+00
3.893657738078407426e+00 2.046271810893153020e+00
3.855106671364760818e+00 2.046271812474665719e+00
3.816937298380950860e+00 2.046271814175668169e+00
3.779145839981139510e+00 2.046271816002605881e+00
3.741728554436771326e+00 2.046271817964773199e+00
3.704681737066110259e+00 2.046271820072021352e+00
3.668001719867436616e+00 2.046271822333659784e+00
3.631684871155877570e+00 2.046271824764600566e+00
3.595727595203838334e+00 2.046271827379701591e+00
3.560126331884988726e+00 2.046271830195144581e+00
3.524877556321771355e+00 2.046271833231282589e+00
3.489977778536407005e+00 2.046271836505845876e+00
3.455423543105353712e+00 2.046271840048880630e+00
3.421211428817182210e+00 2.046271843897398579e+00
3.387338048333843332e+00 2.046271848090825518e+00
3.353800047855290511e+00 2.046271852668592128e+00
3.320594106787416067e+00 2.046271857640623359e+00
3.287716937413283524e+00 2.046271862948640496e+00
3.255165284567607564e+00 2.046271868432702146e+00
3.222935925314462935e+00 2.046271873914298656e+00
3.191025668628181045e+00 2.046271879376793112e+00
3.159431355077406689e+00 2.046271884921508910e+00
3.128149856512283833e+00 2.046271890856922404e+00
3.097178075754736692e+00 2.046271897466006351e+00
3.066512946291818587e+00 2.046271904930968333e+00
3.036151431972097470e+00 2.046271913286263899e+00
3.006090526705047061e+00 2.046271922476351701e+00
2.976327254163412928e+00 2.046271932569370122e+00
2.946858667488527761e+00 2.046271943856946773e+00
2.917681848998542549e+00 2.046271956815263859e+00
2.888793909899546541e+00 2.046271971917418497e+00
2.860191989999551154e+00 2.046271989130492130e+00
2.831873257425297830e+00 2.046272007547060401e+00
2.803834908341879206e+00 2.046272025443548248e+00
2.776074166675128296e+00 2.046272042034034122e+00
2.748588283836760127e+00 2.046272057994891647e+00
2.721374538452237868e+00 2.046272075807935131e+00
2.694430236091324815e+00 2.046272097925638356e+00
2.667752709001311562e+00 2.046272125880115755e+00
2.641339315842882840e+00 2.046272160415174124e+00
2.615187441428596937e+00 2.046272202086168335e+00
2.589294496463957262e+00 2.046272252202006925e+00
2.563657917291046751e+00 2.046272312854398923e+00
2.538275165634700237e+00 2.046272386059691417e+00
2.513143728351188155e+00 2.046272472818582155e+00
2.488261117179394244e+00 2.046272571836246446e+00
2.463624868494449949e+00 2.046272678713344728e+00
2.439232543063811764e+00 2.046272782672994950e+00
2.415081725805753532e+00 2.046272865987718514e+00
2.391170025550251044e+00 2.046272913463764720e+00
2.367495074802228761e+00 2.046272922985694187e+00
2.344054529507157536e+00 2.046272905787878571e+00
2.320846068818967822e+00 2.046272873869019904e+00
2.297867394870265034e+00 2.046272835679367574e+00
2.275116232544817318e+00 2.046272797401072818e+00
2.252590329252293522e+00 2.046272763238021763e+00
2.230287454705241146e+00 2.046272734738208587e+00
2.208205400698258991e+00 2.046272712243788483e+00
2.186341980889365377e+00 2.046272697795735951e+00
2.164695030583529967e+00 2.046272695070421310e+00
2.143262406518346097e+00 2.046272703161321704e+00
2.122041986651828083e+00 2.046272710817410800e+00
2.101031669952305059e+00 2.046272706228149829e+00
2.080229376190401158e+00 2.046272690291906837e+00
2.059633045733070489e+00 2.046272674633748956e+00
2.039240639339673589e+00 2.046272665568627414e+00
2.019050137960073155e+00 2.046272662362838446e+00
1.999059542534725509e+00 2.046272664039242350e+00
1.979266873796758031e+00 2.046272671789363340e+00
1.959670172075998140e+00 2.046272684273820364e+00
1.940267497104948502e+00 2.046272696449495054e+00
1.921056927826681582e+00 2.046272705342462750e+00
1.902036562204635128e+00 2.046272712917120984e+00
1.883204517034292147e+00 2.046272722514615339e+00
1.864558927756724938e+00 2.046272736292214844e+00
1.846097948273984990e+00 2.046272754520753967e+00
1.827819750766321860e+00 2.046272776707955821e+00
1.809722525511209934e+00 2.046272802590329842e+00
1.791804480704168201e+00 2.046272831934468517e+00
1.774063842281354608e+00 2.046272864237128619e+00
1.756498853743915012e+00 2.046272899365235265e+00
1.739107775984074289e+00 2.046272937494583388e+00
1.721888887112944966e+00 2.046272978634301243e+00
1.704840482290044701e+00 2.046273022729847568e+00
1.687960873554499530e+00 2.046273069730406569e+00
1.671248389657920441e+00 2.046273119532023621e+00
1.654701375898931071e+00 2.046273172065793400e+00
1.638318193959337421e+00 2.046273227327416677e+00
1.622097221741918505e+00 2.046273285285115318e+00
1.606036853209820148e+00 2.046273345933474985e+00
1.590135498227544852e+00 2.046273409338086768e+00
1.574391582403509737e+00 2.046273475576279477e+00
1.558803546934167894e+00 2.046273544711485037e+00
1.543369848449671178e+00 2.046273616817041230e+00
1.528088958861060442e+00 2.046273691975987408e+00
1.512959365208970564e+00 2.046273770284552818e+00
1.497979569513832487e+00 2.046273851860140880e+00
1.483148088627556760e+00 2.046273936831445095e+00
1.468463454086690101e+00 2.046274025330899526e+00
1.453924211967019708e+00 2.046274117497794087e+00
1.439528922739623740e+00 2.046274213478012971e+00
1.425276161128340213e+00 2.046274313422803193e+00
1.411164515968653665e+00 2.046274417492661257e+00
1.397192590067974027e+00 2.046274525863482019e+00
1.383359000067300837e+00 2.046274638690955605e+00
1.369662376304258355e+00 2.046274756119214278e+00
1.356101362677483380e+00 2.046274878378348649e+00
1.342674616512359975e+00 2.046275005702905325e+00
1.329380808428079153e+00 2.046275138257381165e+00
1.316218622206019040e+00 2.046275276318140879e+00
1.303186754659424462e+00 2.046275420164349601e+00
1.290283915504380818e+00 2.046275569752936008e+00
1.277508827232060051e+00 2.046275725311279547e+00
1.264860224982237824e+00 2.046275887572699848e+00
1.252336856418057032e+00 2.046276056735375271e+00
1.239937481602036762e+00 2.046276232669338668e+00
1.227660872873303610e+00 2.046276415538246685e+00
1.215505814726043354e+00 2.046276606016058430e+00
1.203471103689151889e+00 2.046276804135653382e+00
1.191555548207080761e+00 2.046277009427122984e+00
1.179757968521861988e+00 2.046277223106647725e+00
1.168077196556299047e+00 2.046277446365547537e+00
1.156512075798315831e+00 2.046277678816988299e+00
1.145061461186451135e+00 2.046277920163318775e+00
1.133724218996486455e+00 2.046278171686489511e+00
1.122499226729194666e+00 2.046278433255328988e+00
1.111385372999202481e+00 2.046278704817546146e+00
1.100381557424953138e+00 2.046278987361759505e+00
1.089486690519755552e+00 2.046279281656614657e+00
1.078699693583916597e+00 2.046279588181711517e+00
1.068019498597936989e+00 2.046279907234426432e+00
1.057445048116769204e+00 2.046280239547201063e+00
1.046975295165118336e+00 2.046280585718417644e+00
1.036609203133780355e+00 2.046280946253376865e+00
1.026345745677010202e+00 2.046281321707859924e+00
1.016183906610901300e+00 2.046281712681879306e+00
1.006122679812773590e+00 2.046282119772456998e+00
9.961610691215579960e-01 2.046282543613032523e+00
9.862980882391664261e-01 2.046282984935693605e+00
9.765327606328380039e-01 2.046283444423088405e+00
9.668641194384535176e-01 2.046283922809283951e+00
9.572912073648053299e-01 2.046284420876607335e+00
9.478130765988174167e-01 2.046284939438066441e+00
9.384287887117003235e-01 2.046285479338182611e+00
9.291374145660399320e-01 2.046286041457646476e+00
9.199380342238018260e-01 2.046286626720577040e+00
9.108297368552494833e-01 2.046287236088383477e+00
9.018116206487618580e-01 2.046287870563412881e+00
8.928827927215462479e-01 2.046288531174192293e+00
8.840423690312340099e-01 2.046289218993519565e+00
8.752894742883503554e-01 2.046289935180799713e+00
8.666232418696537820e-01 2.046290680933064543e+00
8.580428137323306004e-01 2.046291457477445785e+00
8.495473403290402237e-01 2.046292266010540928e+00
8.411359805238021181e-01 2.046293107828021096e+00
